depth(m) lower_95(kyr) lower_68(kyr) median(kyr) mean(kyr) upper_68(kyr) upper_95(kyr)
0.010000 2.073243 2.797234 3.164050 3.100386 3.454724 3.693251
0.030000 3.074021 3.256213 3.501828 3.503498 3.741727 4.011297
0.070000 3.546005 3.845906 4.219290 4.300840 4.748366 5.644829
0.100000 3.951929 4.312051 4.863591 5.025499 5.788870 6.741433
0.130000 4.450821 4.930913 5.940172 5.932623 6.806985 7.827898
0.170000 5.267306 6.312852 7.394618 7.417445 8.552857 9.557165
0.200000 6.155625 7.354262 8.423216 8.451458 9.660588 10.496966
0.230000 7.902635 8.739984 9.987390 9.978406 11.222202 12.073663
0.270000 10.426198 11.434458 12.093317 12.020764 12.621978 13.106717
0.300000 11.736635 12.323164 12.757545 12.748926 13.186765 13.666304
0.330000 12.659119 13.060910 13.394082 13.421778 13.792816 14.324682
0.370000 13.477584 13.833919 14.160908 14.184936 14.550366 14.963829
0.400000 14.171094 14.486280 14.895798 14.905569 15.323580 15.670688
0.430000 14.780287 15.453322 16.147951 16.125441 16.709815 17.434939
0.470000 15.343327 16.076170 16.671786 16.674897 17.254162 18.021367
0.500000 16.143361 16.635856 17.090109 17.176723 17.785191 18.521344
0.530000 16.764741 17.125166 17.573139 17.677772 18.287310 19.021362
0.570000 17.258789 17.646572 18.088804 18.227473 18.870273 19.734169
0.600000 17.623798 18.036583 18.503918 18.642541 19.299702 20.132247
0.630000 18.040660 18.395168 18.894676 19.042133 19.768677 20.556004
0.670000 18.512846 18.879932 19.421682 19.559465 20.367357 21.077900
0.700000 18.857021 19.234963 19.849240 19.959549 20.777339 21.454145
0.730000 19.166898 19.567772 20.230486 20.337791 21.172184 21.885702
0.770000 19.649515 20.065433 20.725998 20.831277 21.671731 22.396168
0.800000 19.977697 20.406152 21.106932 21.204241 22.061519 22.789520
0.830000 20.296217 20.769836 21.459067 21.587308 22.471039 23.327075
0.870000 20.783399 21.253900 21.984530 22.121830 23.074989 24.104260
0.900000 21.135799 21.673163 22.416616 22.582668 23.634312 24.568517
0.930000 21.512350 22.084897 22.909289 23.074791 24.241647 24.972594
0.970000 22.064113 22.688843 23.776861 23.785110 24.876984 25.502627
1.000000 22.598913 23.284886 24.369961 24.350160 25.362714 26.003706
1.030000 23.059890 23.977650 25.003425 24.935252 25.870732 26.482942
1.070000 23.779090 24.878833 25.781246 25.752159 26.633705 27.599784
1.100000 24.391351 25.567883 26.423146 26.419813 27.264935 28.368124
1.130000 25.237462 26.263799 27.177151 27.192097 28.200376 29.029639
1.170000 26.287494 27.158780 27.943992 28.097050 29.204859 30.012002
1.200000 26.743866 27.595559 28.668580 28.690516 29.829023 30.609200
1.230000 27.127113 28.023367 29.335362 29.217770 30.366100 31.175905
1.270000 27.685721 28.611969 30.096975 29.888527 31.025021 31.809332
1.300000 28.137656 29.099270 30.628747 30.380457 31.488490 32.247180
1.330000 28.523290 29.593028 31.126737 30.860166 31.924102 32.638325
1.370000 29.031488 30.286887 31.744976 31.489816 32.482950 33.140593
1.400000 29.405454 30.875719 32.213287 31.961656 32.889346 33.502890
1.430000 29.794683 31.345563 32.637033 32.406955 33.310820 33.883054
1.470000 30.643899 32.105469 33.117324 32.953002 33.724695 34.309106
1.500000 31.242972 32.664113 33.521371 33.376830 34.101224 34.602701
1.530000 32.013879 33.167200 33.894255 33.792188 34.489181 34.959178
1.570000 32.767028 33.694713 34.358824 34.292529 34.900780 35.362818
1.600000 33.232236 34.076694 34.730032 34.678426 35.279256 35.724121
1.630000 33.664957 34.430537 35.092836 35.040890 35.637437 36.076866
1.670000 34.247053 34.898704 35.557014 35.500173 36.077265 36.549653
1.700000 34.606423 35.254256 35.920082 35.852808 36.431376 36.926257
1.730000 35.105614 35.616743 36.274414 36.220878 36.797123 37.256601
1.770000 35.649651 36.082262 36.784861 36.727015 37.336834 37.786220
1.800000 36.062451 36.449069 37.145307 37.120159 37.723323 38.206925
1.830000 36.487741 36.894104 37.532557 37.519103 38.119838 38.567570
1.870000 37.135654 37.575868 38.113040 38.081509 38.569707 38.937439
1.900000 37.841548 38.239593 38.602288 38.593046 38.943744 39.305756
1.930000 38.500886 38.858113 39.233019 39.300539 39.726434 40.513657
1.970000 39.104979 39.507129 40.004435 40.118768 40.788071 41.706544
2.000000 39.524125 39.914057 40.576223 40.710269 41.514902 42.467667
2.030000 39.934684 40.403101 41.139483 41.302622 42.199906 43.585183
2.070000 40.490617 41.100540 41.930717 42.196708 43.262853 45.363740
2.100000 40.981377 41.656105 42.499784 42.844235 44.307532 46.173615
2.130000 41.593969 42.268546 43.132169 43.578314 45.319275 46.910522
2.170000 42.430411 42.977264 44.110550 44.601788 46.427383 48.383520
2.200000 42.854241 43.366176 45.164330 45.314926 47.109097 49.840531
2.230000 43.288669 43.776791 46.445879 46.023986 47.705989 51.425850
2.270000 43.760744 44.248680 47.519543 46.917314 48.397725 52.774730
2.300000 44.099758 44.607067 48.058263 47.463246 48.929087 53.416592
2.320000 44.335142 44.910198 48.437518 47.840041 49.321083 53.877170
2.340000 44.559689 45.229617 48.822298 48.212778 49.695743 54.334732
2.360000 44.819092 45.614207 49.179101 48.581779 50.051415 54.781686
2.380000 45.083134 46.029249 49.528081 48.943762 50.336956 55.127476
2.400000 45.290328 46.363669 49.851293 49.303038 50.619478 55.366925
2.420000 45.573066 46.792411 50.186043 49.663291 50.902416 55.585003
2.440000 45.854383 47.574937 50.507204 50.057600 51.199881 55.815911
2.460000 46.169760 48.457969 50.802308 50.445073 51.490311 56.134993
2.480000 46.398130 49.305919 51.134808 50.850028 51.851368 56.382303
2.500000 46.756740 49.808356 51.433376 51.255744 52.213459 56.554672
2.520000 47.175297 50.496018 51.759493 51.692832 52.680365 56.813784
2.540000 47.580082 51.014757 52.095524 52.126514 53.128695 57.022057
2.560000 48.111420 51.553076 52.399108 52.549149 53.609177 57.286661
2.580000 48.720773 51.893413 52.731180 52.973809 54.184491 57.566919
2.600000 49.322653 52.321131 53.069325 53.418074 54.779264 57.914549
2.620000 50.268074 52.710182 53.422328 53.841460 55.368634 58.217994
2.640000 51.346811 53.047848 53.855368 54.275823 55.983612 58.542735
2.660000 52.185032 53.370632 54.249824 54.689721 56.910561 58.940270
2.680000 52.653918 53.689387 54.711964 55.120900 57.225147 59.271233
2.700000 53.004135 54.044606 55.163439 55.560477 57.645855 59.575624
2.720000 53.461569 54.385198 55.647885 56.007355 58.174361 59.868848
2.740000 53.829853 54.748473 56.137687 56.446201 58.582907 60.131823
2.760000 54.085228 55.245867 56.677889 56.900537 58.985567 60.342632
2.780000 54.419204 55.777718 57.170722 57.357862 59.397984 60.571051
2.800000 54.725631 56.376493 57.745778 57.853488 59.721227 60.790897
2.820000 55.073346 56.908325 58.275612 58.316680 60.050172 60.970329
2.840000 55.398902 57.533272 58.890025 58.791499 60.361646 61.214537
2.860000 55.748270 57.970867 59.483353 59.264522 60.654133 61.395267
2.880000 56.079684 58.646425 59.965287 59.731149 60.961049 61.630986
2.900000 56.499466 59.215261 60.404767 60.166128 61.261335 61.845169
2.920000 56.933257 59.728747 60.746056 60.545908 61.552915 62.095547
2.940000 57.517565 60.205696 61.121606 60.904610 61.816362 62.320198
2.960000 57.985499 60.668405 61.487942 61.303971 62.155024 62.576211
2.980000 58.444496 60.990260 61.825346 61.641654 62.457928 62.902346
3.000000 59.377871 61.307410 62.108506 61.968171 62.713107 63.254013
3.020000 60.549077 61.734509 62.422002 62.348211 62.985916 63.584324
3.040000 61.333471 62.201524 62.782964 62.756553 63.319580 63.931899
3.060000 61.888329 62.542553 63.113994 63.105884 63.660346 64.229680
3.080000 62.213967 62.837445 63.409863 63.409625 63.989927 64.534998
3.100000 62.461035 63.077679 63.683211 63.682834 64.300793 64.864451
3.120000 62.787605 63.330082 63.966016 63.950978 64.586733 65.159814
3.140000 63.011876 63.571212 64.231079 64.206092 64.865885 65.420072
3.160000 63.220318 63.806309 64.459027 64.453127 65.134639 65.688810
3.180000 63.451952 64.042663 64.676964 64.696892 65.398439 65.919829
3.200000 63.683901 64.287957 64.917106 64.936017 65.621915 66.127033
3.220000 63.914080 64.513836 65.164566 65.170585 65.853029 66.351996
3.240000 64.179654 64.743240 65.396924 65.402111 66.094301 66.561082
3.260000 64.424247 64.989375 65.609290 65.636330 66.318894 66.774173
3.280000 64.719063 65.272131 65.861276 65.873581 66.521524 66.977764
3.300000 64.931633 65.508593 66.071086 66.103207 66.737047 67.220737
3.320000 65.176783 65.735171 66.298565 66.329209 66.944009 67.425023
3.340000 65.417827 65.985364 66.551368 66.561835 67.164225 67.650057
3.360000 65.659283 66.232119 66.795820 66.800741 67.381206 67.854786
3.380000 65.929980 66.504071 67.044247 67.048682 67.615436 68.081745
3.400000 66.196192 66.757350 67.293434 67.292785 67.846224 68.347078
3.420000 66.449182 67.020013 67.519455 67.534003 68.073147 68.604715
3.440000 66.729211 67.271730 67.771494 67.792107 68.312638 68.889203
3.460000 66.995924 67.540176 68.053097 68.063927 68.598814 69.153789
3.480000 67.305929 67.813055 68.342849 68.368427 68.917475 69.569132
3.500000 67.616531 68.144212 68.688681 68.723283 69.307327 70.081555
3.600000 69.134019 69.813204 70.722510 70.956859 72.210447 73.778792
3.700000 70.672559 71.996425 73.537114 73.669665 74.799736 78.482227
3.800000 74.217892 75.429255 76.743759 77.342294 79.842379 81.418179
3.900000 76.629745 78.707407 80.720416 80.463599 82.113296 83.279058
4.000000 80.956691 82.117187 83.213045 83.151160 84.148589 85.147465
4.100000 83.217662 84.502790 85.403951 85.287674 86.064515 86.607413
4.200000 86.377331 86.891586 87.557114 87.583516 88.207135 89.163432
4.300000 88.062096 88.625626 89.267912 89.327125 90.036770 90.895482
4.400000 89.354823 90.210265 91.162043 91.217791 92.203872 93.464380
4.500000 90.970793 91.989423 93.522094 93.453805 94.807188 95.909771
4.600000 93.273932 95.609429 96.959129 96.895675 98.256456 99.566661
4.700000 95.476380 97.189277 99.059323 98.830737 100.273995 101.738964
4.800000 97.268965 98.811254 100.751886 100.587878 102.136130 103.325390
4.900000 99.150390 100.876082 102.495482 102.445453 104.017983 105.284559
5.000000 101.615972 103.267672 104.774250 104.664022 106.008030 107.083007
5.100000 103.781572 105.353915 106.734237 106.617722 107.764262 108.634239
5.200000 106.055645 107.514427 108.626384 108.503143 109.477432 110.397972
5.300000 108.958885 109.700609 110.425688 110.406771 111.112226 111.721089
5.400000 110.833807 111.752641 112.528793 112.482736 113.225925 113.986406
5.500000 113.181752 114.012694 115.146772 115.233398 116.539823 117.737154
5.600000 118.207170 119.449000 120.888849 121.037482 122.684344 124.717640
5.700000 122.120767 123.581095 125.123665 125.040744 126.498891 127.621165
5.800000 125.183135 126.853250 128.489089 128.209053 129.476651 130.213215
5.900000 132.922375 133.256645 133.541015 133.531770 133.816547 134.101625
6.000000 134.953327 135.220684 135.478896 135.547449 135.820282 136.671665
6.100000 135.887429 136.384313 137.003812 137.090595 137.746690 138.956348
6.200000 137.217454 137.849775 138.582776 138.678420 139.556384 140.770693
6.300000 138.572517 139.450115 140.237619 140.334080 141.335306 142.431760
6.400000 140.221952 141.037950 141.976105 142.071484 143.124234 144.321724
6.500000 141.633634 142.583668 143.616300 143.688178 144.864157 146.064770
6.600000 142.974799 144.056194 145.278438 145.324645 146.685075 147.792239
6.700000 144.497991 145.706382 147.170655 147.181629 148.698084 149.761979
