depth(m) lower_95(kyr) lower_68(kyr) median(kyr) mean(kyr) upper_68(kyr) upper_95(kyr)
0.005000 0.019724 0.094582 0.249432 0.265403 0.434469 0.633808
0.015000 0.137034 0.247254 0.394214 0.407769 0.566708 0.756403
0.025000 0.255708 0.374413 0.545802 0.571072 0.757648 1.034639
0.035000 0.362521 0.503085 0.702696 0.742056 0.969796 1.396148
0.045000 0.468780 0.626211 0.869627 0.931914 1.216711 1.830135
0.055000 0.580270 0.762984 1.044246 1.137018 1.537143 2.201627
0.065000 0.691015 0.889789 1.244494 1.364774 1.890403 2.660252
0.075000 0.809739 1.021599 1.433173 1.584194 2.173744 3.095277
0.085000 0.921788 1.152694 1.659681 1.818333 2.489356 3.527037
0.095000 1.015254 1.297047 1.891893 2.046014 2.825151 3.861974
0.105000 1.135011 1.452529 2.158947 2.277197 3.078121 4.219263
0.115000 1.247773 1.616772 2.421860 2.520651 3.345471 4.607063
0.125000 1.366513 1.813486 2.696298 2.763188 3.660008 4.863562
0.135000 1.515447 2.010437 2.945048 3.015737 3.986279 5.160344
0.145000 1.697256 2.185442 3.202240 3.265259 4.313163 5.425135
0.155000 1.789949 2.374489 3.423992 3.504388 4.592442 5.686046
0.165000 1.976162 2.636876 3.671940 3.747637 4.864301 6.104178
0.175000 2.125472 2.883134 3.908172 3.997578 5.181726 6.347719
0.185000 2.289078 3.178265 4.154654 4.264709 5.490533 6.630301
0.195000 2.504360 3.487858 4.401174 4.538554 5.802578 6.787530
0.205000 2.647101 3.760673 4.646175 4.800264 6.088537 6.954243
0.215000 2.834266 4.003086 4.932704 5.075754 6.334570 7.145139
0.225000 3.160635 4.342563 5.292059 5.389937 6.615479 7.363738
0.235000 3.462946 4.630843 5.677074 5.694513 6.856713 7.592709
0.245000 3.711915 4.946204 5.982902 5.988306 7.092588 7.779011
0.255000 4.056053 5.269921 6.348649 6.278595 7.334725 7.934241
0.265000 4.523449 5.600162 6.636547 6.568630 7.560161 8.133791
0.275000 4.841081 5.879587 6.925778 6.842358 7.780733 8.322872
0.285000 5.184501 6.186615 7.205459 7.120848 7.993721 8.518314
0.295000 5.530769 6.569396 7.459458 7.381621 8.216095 8.748244
0.305000 5.940002 6.881146 7.665301 7.627960 8.392854 8.987837
0.315000 6.344274 7.205824 7.910174 7.882302 8.595327 9.212232
0.325000 6.702943 7.461629 8.148737 8.126155 8.792105 9.436018
0.335000 6.945338 7.719792 8.340635 8.335301 8.978574 9.600929
0.345000 7.290260 7.964376 8.545907 8.551088 9.154837 9.768008
0.355000 7.557608 8.143158 8.749999 8.742832 9.322374 9.953503
0.365000 7.757848 8.323231 8.943712 8.914184 9.487600 10.094493
0.375000 7.909620 8.497650 9.116134 9.074197 9.630235 10.225246
0.385000 8.050240 8.649660 9.254322 9.218885 9.791571 10.358239
0.395000 8.198644 8.788653 9.394710 9.359301 9.941904 10.492237
0.405000 8.384603 8.924323 9.530458 9.504703 10.095894 10.609517
0.415000 8.586443 9.068087 9.671425 9.651509 10.242110 10.751500
0.425000 8.756527 9.220143 9.796253 9.793951 10.387097 10.875626
0.435000 8.921198 9.343953 9.923566 9.929297 10.541459 10.985055
0.445000 9.044430 9.482308 10.048480 10.055298 10.659606 11.115708
0.455000 9.138802 9.625715 10.166862 10.177842 10.780795 11.208585
0.465000 9.270996 9.745024 10.274764 10.296979 10.900357 11.327112
0.475000 9.408314 9.883004 10.393348 10.417109 11.021234 11.425274
0.485000 9.548898 10.003652 10.513574 10.534625 11.128223 11.531129
0.495000 9.675626 10.135929 10.642013 10.651460 11.232134 11.652356
0.505000 9.804105 10.272631 10.745819 10.771087 11.349826 11.728471
0.515000 9.895732 10.407252 10.881489 10.890014 11.453969 11.845116
0.525000 10.048952 10.534849 11.009835 11.014025 11.570990 11.959944
0.535000 10.238434 10.674954 11.127248 11.148012 11.692822 12.063080
0.545000 10.381750 10.821838 11.245691 11.273891 11.799122 12.165101
0.555000 10.518770 10.963557 11.375343 11.404939 11.910893 12.265842
0.565000 10.709529 11.119030 11.527369 11.550915 12.024848 12.357096
0.575000 10.895018 11.295642 11.706758 11.711984 12.150068 12.482374
0.585000 11.049097 11.486277 11.859788 11.861396 12.274010 12.579272
0.595000 11.239515 11.666957 12.018257 12.017554 12.386895 12.700695
0.605000 11.491455 11.867588 12.187919 12.196037 12.542117 12.812847
0.615000 11.895396 12.160168 12.478714 12.472995 12.792541 13.037332
0.625000 12.072943 12.367777 12.697980 12.707786 13.049102 13.300524
0.635000 12.213941 12.556567 12.931525 12.909371 13.250230 13.534155
0.645000 12.342802 12.688738 13.142617 13.111774 13.498923 13.753299
0.655000 12.468258 12.815369 13.345683 13.282416 13.694984 13.942363
0.665000 12.566460 12.926229 13.507019 13.438867 13.880184 14.086922
0.675000 12.663633 13.033192 13.691340 13.595085 14.049144 14.279057
0.685000 12.779089 13.134523 13.878337 13.752482 14.219753 14.501723
0.695000 12.856208 13.249475 14.065721 13.905621 14.343391 14.676227
0.705000 12.961404 13.382111 14.230568 14.069460 14.461058 14.830282
0.715000 13.049026 13.523235 14.364870 14.210351 14.575598 14.944813
0.725000 13.145544 13.705963 14.477369 14.329753 14.683660 15.100720
0.735000 13.236272 13.931908 14.575342 14.439308 14.779279 15.203305
0.745000 13.336453 14.084946 14.670295 14.539008 14.870581 15.276996
0.755000 13.425547 14.216616 14.762064 14.635885 14.958843 15.375546
0.765000 13.510641 14.325074 14.841601 14.726812 15.045947 15.472022
0.775000 13.616171 14.424916 14.922890 14.812353 15.124173 15.569931
0.785000 13.738504 14.498406 14.997534 14.893870 15.196509 15.662009
0.795000 13.863674 14.595010 15.070096 14.973455 15.273276 15.736997
0.805000 13.993264 14.677331 15.148749 15.057927 15.354779 15.819159
0.815000 14.144991 14.777379 15.236568 15.155518 15.460448 15.927190
0.825000 14.331843 14.887028 15.330006 15.266316 15.567458 16.015668
0.835000 14.591282 15.018817 15.458752 15.411131 15.723082 16.165282
0.845000 14.875831 15.228311 15.640527 15.625639 15.976374 16.404013
0.855000 15.809477 16.081418 16.495650 16.475080 16.827955 17.169430
0.865000 16.370172 16.698624 17.039850 17.038446 17.373975 17.705452
0.875000 16.634312 16.991212 17.335534 17.345426 17.704491 18.132317
0.885000 16.835538 17.193023 17.581265 17.579714 17.953705 18.442343
0.895000 16.966053 17.333284 17.775524 17.780739 18.185332 18.748857
0.905000 17.087779 17.484775 17.957905 17.975652 18.471785 18.980795
0.915000 17.185099 17.636730 18.114201 18.155690 18.764402 19.208168
0.925000 17.296089 17.778098 18.247874 18.313022 18.997407 19.372430
0.935000 17.416803 17.907678 18.372565 18.453032 19.166303 19.513776
0.945000 17.547215 18.029960 18.498599 18.588272 19.336571 19.660111
0.955000 17.658467 18.163020 18.629834 18.731927 19.471800 19.764621
0.965000 17.767620 18.315926 18.791974 18.880337 19.582415 19.875641
0.975000 17.887785 18.477403 18.996418 19.042271 19.693693 20.016421
0.985000 18.014819 18.628708 19.187447 19.196708 19.805824 20.132334
0.995000 18.158552 18.768814 19.359903 19.341820 19.923583 20.247547
1.005000 18.322667 18.915547 19.512296 19.478147 20.037529 20.366823
1.025000 18.594134 19.207384 19.790563 19.727040 20.255038 20.562064
1.045000 18.846382 19.473174 20.039539 19.968650 20.446140 20.742351
1.055000 18.975226 19.647183 20.174112 20.102133 20.558404 20.861329
1.065000 19.127677 19.801016 20.308742 20.237637 20.678679 20.990851
1.085000 19.490255 20.068898 20.582821 20.499015 20.910538 21.212731
1.105000 19.794970 20.369349 20.808099 20.751185 21.141421 21.456077
1.115000 20.015060 20.523683 20.932208 20.892674 21.257227 21.580840
1.125000 20.236751 20.678503 21.069481 21.040576 21.387961 21.722254
1.135000 20.456558 20.843531 21.219871 21.195874 21.540774 21.867871
1.145000 20.643860 21.013356 21.374878 21.354685 21.678059 22.004320
1.155000 20.898007 21.218899 21.543884 21.528171 21.829305 22.120199
1.165000 21.174905 21.440681 21.723614 21.721230 22.011195 22.260440
1.175000 21.617796 21.953020 22.323234 22.311493 22.666006 22.961118
1.185000 22.202386 22.498230 22.820119 22.805179 23.108528 23.332702
1.195000 22.414725 22.743758 23.121607 23.074731 23.380288 23.603434
1.205000 22.546275 22.920186 23.375509 23.325496 23.669933 23.973813
1.225000 22.738000 23.150356 23.854511 23.838613 24.302446 25.546874
1.245000 22.944181 23.334305 24.553889 24.491614 25.325233 26.259852
1.265000 23.140972 23.552991 25.372414 25.215326 26.460983 26.960987
1.285000 23.360572 23.784901 26.422952 26.047816 27.463607 28.245456
1.305000 23.618856 24.001881 26.975828 26.519342 27.969498 29.094026
1.325000 23.838149 24.329924 27.331146 26.908905 28.537288 29.585210
1.345000 24.110069 24.786357 27.602014 27.268717 29.034287 30.196721
1.365000 24.403109 25.326078 27.855554 27.614961 29.461594 30.680938
1.385000 24.650192 25.878843 28.131116 27.988023 29.767026 31.172052
1.405000 25.004400 26.175695 28.410715 28.322718 30.095403 31.594689
1.425000 25.343058 26.494428 28.706076 28.640035 30.387531 32.005102
1.445000 25.713546 26.756723 29.089822 28.954779 30.708412 32.357782
1.465000 26.130348 27.152305 29.431049 29.288628 31.067963 32.828476
1.485000 26.405682 27.499358 29.860591 29.634965 31.411562 33.160355
1.505000 26.790079 27.874912 30.216289 30.005546 31.820739 33.489807
