depth(m) lower_95(kyr) lower_68(kyr) median(kyr) mean(kyr) upper_68(kyr) upper_95(kyr)
0.000000 0.042265 0.244948 0.503183 0.508129 0.774820 1.003653
0.040000 0.161703 0.356941 0.594556 0.605697 0.854554 1.081658
0.120000 0.339793 0.551409 0.783012 0.785017 1.010570 1.226000
0.200000 0.576801 0.770404 0.967540 0.971474 1.167912 1.392237
0.245000 0.711829 0.892836 1.082594 1.085382 1.279629 1.480525
0.322500 0.889635 1.070205 1.307635 1.337106 1.592344 1.988161
0.400000 1.037402 1.251347 1.516079 1.583060 1.914901 2.441729
0.500000 1.227889 1.470883 1.819954 1.897067 2.368563 2.949133
0.600000 1.407317 1.684908 2.136013 2.223046 2.779842 3.484026
0.733333 1.672434 2.009757 2.598196 2.676359 3.299154 4.123553
0.866667 1.940786 2.323170 3.085246 3.149229 3.985604 4.751714
1.000000 2.170719 2.716846 3.579837 3.634042 4.516597 5.428281
1.100000 2.342141 3.067707 3.955594 3.992271 4.910213 5.887391
1.200000 2.516925 3.357930 4.331253 4.333472 5.266119 6.318987
1.300000 2.731835 3.706309 4.654708 4.683952 5.627834 6.780806
1.400000 2.987097 4.027618 4.997675 5.017806 5.966743 7.236213
1.500000 3.206543 4.296711 5.352878 5.343584 6.300685 7.527225
1.600000 3.438539 4.628348 5.684415 5.664418 6.705559 7.755209
1.700000 3.702207 5.006766 6.001343 5.983217 6.991960 7.980771
1.800000 4.128809 5.308044 6.319754 6.306060 7.307126 8.342808
1.900000 4.412712 5.649497 6.681203 6.629520 7.624225 8.709738
2.000000 4.693447 5.959772 6.978543 6.955870 7.972547 9.002864
2.100000 5.038243 6.308795 7.304354 7.271058 8.240193 9.310485
2.200000 5.363490 6.695716 7.624882 7.618857 8.574706 9.600888
2.300000 5.651090 7.071822 7.971393 7.970861 8.911259 9.912270
2.400000 6.098216 7.441219 8.322156 8.322392 9.265114 10.155744
2.500000 6.777404 7.880277 8.691653 8.707316 9.644315 10.366010
2.600000 7.390746 8.364026 9.074629 9.105906 9.963402 10.715551
2.700000 7.789745 8.717552 9.455700 9.453049 10.268717 10.994533
2.800000 8.174715 9.093454 9.819754 9.804552 10.578333 11.205338
2.900000 8.567054 9.424578 10.158330 10.128051 10.864913 11.452277
3.000000 9.040869 9.840587 10.490928 10.473930 11.125812 11.705000
3.100000 9.514302 10.306283 10.930055 10.876836 11.455773 11.938063
3.200000 9.938803 10.750119 11.322670 11.269967 11.790605 12.160528
3.300000 10.550853 11.188535 11.676395 11.631005 12.108183 12.436149
3.400000 10.992459 11.510308 11.949097 11.932743 12.376311 12.698446
3.500000 11.365503 11.828787 12.245619 12.232598 12.644618 12.913963
3.600000 11.800279 12.182041 12.586663 12.571685 12.956890 13.317195
3.700000 12.229498 12.587560 12.938495 12.938436 13.296735 13.660609
3.800000 12.611941 12.937168 13.274159 13.280953 13.634885 14.003599
3.900000 12.909618 13.222262 13.536272 13.562291 13.932689 14.272647
4.000000 13.138091 13.487168 13.773346 13.802428 14.141964 14.496366
4.040000 13.291821 13.620632 13.903664 13.920491 14.258155 14.584321
4.080000 13.392746 13.739580 14.005687 14.026333 14.349239 14.679576
4.100000 13.433244 13.794632 14.060171 14.079917 14.395716 14.731127
4.120000 13.506150 13.856436 14.111134 14.129800 14.445965 14.775014
4.160000 13.599238 13.956579 14.203361 14.224269 14.523397 14.871454
4.200000 13.719652 14.050984 14.303042 14.319913 14.598755 14.973168
4.240000 13.829893 14.146495 14.397186 14.412361 14.691963 15.055007
4.280000 13.939554 14.246442 14.500050 14.511031 14.794373 15.120223
4.300000 13.995728 14.295488 14.550240 14.564551 14.846816 15.167022
4.320000 14.053882 14.347149 14.620689 14.620995 14.894601 15.256697
4.360000 14.174575 14.455691 14.729144 14.729398 14.992881 15.343830
4.400000 14.295161 14.568826 14.835193 14.837281 15.089973 15.431883
4.440000 14.420057 14.689431 14.972966 14.962210 15.196557 15.549031
4.480000 14.530272 14.816687 15.096234 15.078170 15.309365 15.646282
4.500000 14.567824 14.876927 15.159379 15.138604 15.368402 15.698684
4.520000 14.643888 14.935129 15.212773 15.198475 15.437160 15.761448
4.560000 14.765043 15.069517 15.325982 15.318477 15.555090 15.881599
4.600000 14.888981 15.207207 15.434630 15.433316 15.669036 16.003595
4.640000 15.011781 15.331834 15.552368 15.554243 15.776612 16.122489
4.680000 15.151836 15.485085 15.690012 15.705958 15.944416 16.241709
4.700000 15.222371 15.549253 15.761297 15.776383 16.024783 16.305722
4.720000 15.288984 15.614909 15.827626 15.843469 16.089636 16.379243
4.760000 15.444328 15.754257 15.973071 15.988633 16.240762 16.531645
4.800000 15.622178 15.871628 16.097675 16.116656 16.365576 16.677580
4.840000 15.731504 15.964977 16.210620 16.225186 16.484279 16.806223
4.880000 15.799206 16.054760 16.304726 16.326982 16.595698 16.957151
4.900000 15.848011 16.109187 16.367739 16.387447 16.649200 17.045834
4.920000 15.898815 16.159858 16.432824 16.447961 16.715619 17.126467
4.960000 15.985938 16.251257 16.558398 16.567843 16.851501 17.289620
5.000000 16.072172 16.340790 16.670872 16.692367 17.010804 17.521866
5.040000 16.157629 16.441226 16.786966 16.819629 17.198205 17.810287
5.080000 16.209041 16.515698 16.896062 16.943517 17.359503 18.040276
5.100000 16.251252 16.557572 16.943837 16.998061 17.433048 18.114813
5.120000 16.293127 16.609354 16.995044 17.050582 17.505374 18.171516
5.160000 16.383816 16.690702 17.086882 17.151359 17.626131 18.346712
5.200000 16.455405 16.760317 17.179022 17.253928 17.770534 18.492419
5.240000 16.528464 16.833241 17.269419 17.357988 17.921339 18.602290
5.280000 16.583145 16.901112 17.372361 17.468900 18.078067 18.729122
5.300000 16.636832 16.950724 17.413754 17.524217 18.143017 18.813801
5.320000 16.689879 16.990379 17.458418 17.576809 18.209505 18.897918
5.360000 16.758384 17.077363 17.546205 17.682079 18.342298 18.993481
5.400000 16.826688 17.156563 17.635741 17.788386 18.504885 19.092504
5.440000 16.911462 17.248450 17.721294 17.894442 18.653945 19.187785
5.480000 16.960406 17.325432 17.803420 18.000209 18.796116 19.332170
5.500000 17.004438 17.364764 17.845762 18.051140 18.867235 19.383967
5.520000 17.035126 17.411769 17.891855 18.102360 18.930395 19.415700
5.560000 17.103113 17.488535 17.975113 18.201447 19.062755 19.521650
5.600000 17.163148 17.560639 18.062491 18.297168 19.165799 19.609777
5.640000 17.238586 17.637517 18.163119 18.391599 19.264768 19.707005
5.680000 17.307796 17.717613 18.239983 18.483444 19.350633 19.817139
5.700000 17.343133 17.766560 18.280726 18.529257 19.408621 19.860917
5.720000 17.384810 17.812013 18.322890 18.576175 19.448638 19.914518
5.760000 17.463106 17.889105 18.449809 18.668957 19.529120 19.983258
5.800000 17.524607 17.968952 18.561801 18.761492 19.633761 20.079477
5.840000 17.598652 18.047861 18.645482 18.850023 19.733559 20.198930
5.880000 17.669178 18.125237 18.749490 18.940431 19.817359 20.390567
5.900000 17.703726 18.167518 18.786940 18.985516 19.860853 20.439990
5.920000 17.740092 18.220138 18.859231 19.031462 19.912384 20.479047
5.960000 17.850124 18.315101 18.973092 19.122026 20.003607 20.557636
6.000000 17.976276 18.404745 19.054858 19.208256 20.082222 20.655098
6.040000 18.062789 18.486354 19.162594 19.294800 20.175867 20.730808
6.080000 18.139670 18.573000 19.271798 19.380380 20.246034 20.833656
6.120000 18.265760 18.647136 19.363473 19.464644 20.334208 20.946742
6.160000 18.374575 18.739950 19.433995 19.548032 20.415522 21.010493
6.200000 18.476934 18.810833 19.538547 19.635646 20.504632 21.108631
6.240000 18.549041 18.889679 19.655552 19.726599 20.579677 21.197145
6.280000 18.631812 18.977863 19.770189 19.816896 20.651899 21.288073
6.320000 18.707468 19.051511 19.920177 19.908957 20.731429 21.405836
6.360000 18.770463 19.139779 20.062172 20.005694 20.824204 21.620294
6.400000 18.840046 19.207977 20.154921 20.099299 20.920176 21.709582
6.440000 18.903990 19.305652 20.249038 20.193169 20.993468 21.804075
6.480000 18.984330 19.388332 20.355732 20.289536 21.065778 21.899424
6.520000 19.067016 19.475979 20.449669 20.386459 21.149964 22.068101
6.560000 19.189393 19.567062 20.536325 20.478721 21.234344 22.194846
6.600000 19.285223 19.654373 20.627754 20.574743 21.327303 22.324382
6.640000 19.355644 19.747668 20.709261 20.669040 21.416582 22.514740
6.680000 19.457774 19.861373 20.818362 20.766035 21.500477 22.629443
6.720000 19.540848 19.986786 20.920164 20.863773 21.574013 22.819074
6.760000 19.632108 20.109654 20.994257 20.959206 21.653655 22.921511
6.810000 19.716620 20.223043 21.087191 21.080433 21.761976 23.073932
6.840000 19.791047 20.305390 21.145992 21.151044 21.822888 23.152158
6.880000 19.867398 20.400350 21.222726 21.243026 21.887479 23.283614
6.920000 19.972379 20.500379 21.322503 21.335495 21.971574 23.378376
6.960000 20.054532 20.607606 21.409191 21.427989 22.058995 23.493890
7.000000 20.138605 20.713645 21.485572 21.518928 22.136705 23.590652
7.040000 20.213494 20.829948 21.554015 21.607988 22.213225 23.707077
7.080000 20.309231 20.951749 21.632003 21.700746 22.289122 23.869430
7.120000 20.385062 21.061941 21.707303 21.791649 22.365777 24.013469
7.160000 20.471445 21.154343 21.795748 21.886165 22.445063 24.278883
7.200000 20.574749 21.252848 21.873805 21.978900 22.528061 24.475238
7.240000 20.655737 21.360727 21.952629 22.071045 22.611480 24.703354
7.280000 20.764829 21.494313 22.035838 22.164534 22.683072 24.794005
7.320000 20.871359 21.567329 22.119329 22.254607 22.768325 24.935517
7.360000 20.957001 21.704330 22.215661 22.348109 22.878229 25.007061
7.400000 21.049708 21.804307 22.315674 22.445846 22.965806 25.288460
7.440000 21.176572 21.912906 22.396359 22.538469 23.060346 25.414053
7.480000 21.282947 22.000523 22.474474 22.630677 23.142042 25.499450
7.520000 21.385817 22.092941 22.555345 22.725565 23.235883 25.622831
7.560000 21.518527 22.203691 22.643065 22.819878 23.324990 25.722432
7.600000 21.615133 22.299648 22.737925 22.922718 23.419235 25.838231
7.640000 21.707544 22.396853 22.817643 23.013021 23.523299 25.985727
7.680000 21.794898 22.493724 22.893894 23.109311 23.624706 26.102438
7.720000 21.880827 22.566832 22.983151 23.200169 23.743194 26.255340
7.760000 21.954132 22.657367 23.055850 23.288983 23.833487 26.329165
7.840000 22.103411 22.797549 23.198641 23.456110 24.026652 26.535700
7.880000 22.184157 22.868368 23.288156 23.542307 24.106648 26.593973
7.900000 22.237574 22.905614 23.322854 23.587487 24.150256 26.641836
7.920000 22.275575 22.938835 23.364824 23.632019 24.202081 26.678787
7.960000 22.341215 23.023340 23.448309 23.716027 24.301058 26.764298
8.040000 22.480977 23.172028 23.604226 23.871849 24.476762 26.908961
8.080000 22.575614 23.242177 23.675294 23.957026 24.602252 26.978594
8.100000 22.601016 23.282014 23.719345 24.000568 24.649741 27.003162
8.120000 22.651223 23.319695 23.764584 24.045128 24.713309 27.057688
8.160000 22.752003 23.401268 23.836255 24.129545 24.828646 27.120508
8.200000 22.855389 23.485045 23.920270 24.213991 24.906866 27.203656
8.240000 22.948905 23.558420 23.992467 24.296011 24.997778 27.263758
8.280000 23.072898 23.637644 24.066411 24.377946 25.068886 27.333003
8.320000 23.133112 23.701128 24.146836 24.459367 25.145492 27.419210
8.360000 23.282108 23.787219 24.231564 24.539268 25.223862 27.496286
8.440000 23.436449 23.921681 24.384969 24.690843 25.409004 27.635087
8.480000 23.502182 23.993996 24.464565 24.770173 25.533260 27.703674
8.520000 23.560705 24.095910 24.553890 24.852675 25.617814 27.802220
8.560000 23.649883 24.152962 24.633317 24.933777 25.686083 27.881721
8.600000 23.747831 24.245521 24.710255 25.017001 25.762809 27.946779
8.640000 23.828336 24.339925 24.800585 25.097827 25.850313 28.018511
8.680000 23.901981 24.407325 24.879776 25.178204 25.927445 28.085206
8.720000 23.963159 24.491267 24.967411 25.257406 26.015803 28.159293
8.760000 24.050893 24.572224 25.047036 25.337467 26.110204 28.233322
8.840000 24.212109 24.691377 25.200775 25.490675 26.350636 28.367156
8.880000 24.282771 24.755237 25.281058 25.570491 26.430558 28.446485
8.920000 24.357591 24.818281 25.359818 25.652110 26.542488 28.500506
8.960000 24.425548 24.898159 25.451891 25.734019 26.643024 28.589653
9.000000 24.493572 24.974859 25.519643 25.816682 26.733580 28.665568
9.040000 24.531965 25.051700 25.584832 25.900017 26.824845 28.718683
9.080000 24.585170 25.116596 25.671317 25.978487 26.915231 28.776526
9.120000 24.674431 25.187276 25.759350 26.059305 27.012942 28.854473
9.160000 24.755669 25.259775 25.851650 26.139156 27.109294 28.929570
9.240000 24.891041 25.357539 26.002515 26.289779 27.291279 29.085331
9.280000 24.958793 25.429137 26.085532 26.371463 27.386118 29.186807
9.320000 25.022937 25.495103 26.187278 26.454378 27.450794 29.285470
9.360000 25.102164 25.569219 26.264288 26.539701 27.526896 29.367193
9.400000 25.180394 25.628998 26.349581 26.626591 27.639486 29.437428
9.440000 25.236794 25.705027 26.462054 26.708750 27.721522 29.518521
9.480000 25.330495 25.779556 26.538931 26.792463 27.808409 29.582116
9.520000 25.394485 25.851310 26.635592 26.875968 27.905935 29.667261
9.560000 25.462810 25.925285 26.709281 26.958184 27.979751 29.733491
9.600000 25.542586 26.009890 26.789443 27.043850 28.096824 29.800239
9.640000 25.657972 26.098299 26.889909 27.130769 28.185609 29.868118
9.680000 25.733102 26.178217 26.984238 27.223224 28.270336 29.931669
9.720000 25.836017 26.267039 27.084486 27.314789 28.392318 30.022929
9.760000 25.954820 26.357676 27.174313 27.408261 28.452302 30.086124
9.800000 26.042816 26.446379 27.267763 27.502882 28.541661 30.171952
9.840000 26.112082 26.550976 27.355320 27.596484 28.634957 30.231918
9.960000 26.338755 26.818333 27.618569 27.863399 28.927920 30.438777
10.000000 26.414999 26.916228 27.722793 27.959826 29.016802 30.502806
10.040000 26.484514 27.016964 27.806803 28.054289 29.174697 30.587674
10.080000 26.564597 27.109475 27.908362 28.150633 29.287207 30.686902
10.120000 26.640846 27.200177 28.008871 28.249269 29.360572 30.763479
10.160000 26.730502 27.299054 28.100378 28.349163 29.469145 30.825873
10.200000 26.790441 27.390548 28.199337 28.451656 29.545696 30.905335
10.240000 26.871525 27.474785 28.309605 28.550932 29.637907 30.975051
10.280000 26.949466 27.585328 28.417558 28.658789 29.753756 31.050492
10.360000 27.114017 27.783792 28.729329 28.878807 30.142562 31.193577
10.400000 27.177107 27.873617 28.839501 28.980153 30.239254 31.263143
10.440000 27.262691 27.963576 28.969346 29.083993 30.327254 31.384382
10.480000 27.359742 28.075466 29.071534 29.189728 30.457528 31.532262
10.520000 27.449642 28.185654 29.192288 29.289509 30.555540 31.651118
10.560000 27.512699 28.281492 29.298991 29.393165 30.654339 31.746314
10.600000 27.575225 28.372397 29.407832 29.492344 30.737972 31.925641
10.640000 27.660994 28.466559 29.515350 29.595428 30.855358 32.019251
10.680000 27.751859 28.605844 29.618808 29.698584 30.985282 32.086135
10.720000 27.846355 28.722146 29.703822 29.797331 31.074387 32.194253
10.760000 27.935209 28.819208 29.782983 29.899745 31.158149 32.361806
10.800000 28.013585 28.916066 29.888683 30.001134 31.260504 32.500383
10.840000 28.097391 29.012321 29.973754 30.100227 31.369735 32.584170
10.880000 28.190409 29.105682 30.074954 30.197393 31.473923 32.659709
10.920000 28.262464 29.205174 30.179938 30.295524 31.598006 32.771037
10.960000 28.367756 29.283668 30.290817 30.397062 31.695205 32.879424
11.000000 28.443038 29.380558 30.385783 30.495453 31.786500 33.014942
11.040000 28.497560 29.490366 30.470310 30.594779 31.870696 33.115030
11.080000 28.619687 29.588604 30.566804 30.695856 31.958701 33.217802
11.120000 28.747036 29.670610 30.664421 30.800542 32.055567 33.396976
11.160000 28.864142 29.770073 30.765808 30.903678 32.167862 33.528538
11.200000 28.927677 29.888312 30.865290 31.008400 32.243021 33.639911
11.240000 29.039045 29.992287 30.977403 31.115493 32.350406 33.716160
11.280000 29.139476 30.075784 31.081431 31.219357 32.428838 33.789098
11.320000 29.253183 30.188389 31.199964 31.325995 32.503178 33.916812
11.360000 29.346356 30.287943 31.328788 31.436286 32.605752 34.025984
11.400000 29.485420 30.392125 31.439225 31.544176 32.732216 34.114475
11.440000 29.562808 30.495270 31.526417 31.657125 32.838815 34.238255
11.480000 29.641516 30.582823 31.641204 31.766519 32.948512 34.328159
11.520000 29.754325 30.675358 31.745144 31.875388 33.034767 34.456344
11.560000 29.894645 30.760571 31.829548 31.985271 33.156144 34.638805
11.600000 30.002365 30.841911 31.942573 32.097364 33.269178 34.777409
11.640000 30.123612 30.946933 32.077325 32.215338 33.401496 34.853268
11.680000 30.196125 31.078948 32.191597 32.326508 33.511027 34.930601
11.720000 30.365774 31.185296 32.323407 32.447195 33.638031 35.031451
11.760000 30.461507 31.282678 32.449321 32.565695 33.739266 35.139276
11.800000 30.595409 31.376167 32.562839 32.676100 33.850574 35.244705
11.840000 30.696008 31.488355 32.689231 32.784259 33.965852 35.325351
11.880000 30.796879 31.591634 32.829776 32.893619 34.079233 35.404056
11.920000 30.895210 31.750521 32.933193 33.002186 34.188538 35.476279
11.960000 31.045950 31.876396 33.026439 33.112848 34.298066 35.546088
12.000000 31.178594 32.006490 33.159342 33.228815 34.403424 35.603520
12.040000 31.266419 32.129573 33.281316 33.353922 34.518268 35.705277
12.080000 31.363344 32.268986 33.417453 33.471186 34.643790 35.847839
12.120000 31.569694 32.401993 33.533870 33.594176 34.768369 35.977020
12.160000 31.718367 32.524463 33.624761 33.713534 34.875127 36.049091
12.200000 31.900520 32.667782 33.739125 33.832646 34.982334 36.122362
12.240000 32.028087 32.785545 33.869326 33.952536 35.092286 36.209470
12.280000 32.254995 32.924938 33.978826 34.078258 35.215831 36.305888
12.320000 32.397960 33.080937 34.092637 34.200902 35.339588 36.389058
12.360000 32.566390 33.229493 34.214930 34.331078 35.502820 36.494698
12.400000 32.706644 33.393455 34.315075 34.467938 35.643215 36.580823
12.440000 32.883394 33.538328 34.429713 34.601675 35.764112 36.671862
12.480000 33.042862 33.653121 34.540597 34.735102 35.914841 36.789048
12.500000 33.137843 33.717439 34.613427 34.799953 35.985468 36.826101
12.520000 33.225992 33.795376 34.667719 34.868247 36.057401 36.873985
12.560000 33.364952 33.967310 34.859499 35.030580 36.194175 36.990217
12.600000 33.583202 34.233753 35.029266 35.219552 36.357785 37.105274
12.640000 33.728646 34.461752 35.218542 35.408274 36.508247 37.305238
12.680000 33.889609 34.619282 35.385323 35.566556 36.623956 37.451835
12.700000 33.946228 34.701287 35.462454 35.638292 36.686954 37.524076
12.720000 34.060930 34.773062 35.539093 35.709207 36.750680 37.571406
12.760000 34.163861 34.912635 35.677771 35.854526 36.902970 37.700447
12.800000 34.293715 35.091462 35.837747 35.996541 37.008838 37.815470
12.840000 34.421184 35.207894 35.963113 36.130120 37.116198 37.925404
12.880000 34.518207 35.349741 36.095320 36.265064 37.234944 38.034597
12.920000 34.606440 35.463152 36.222020 36.393592 37.362477 38.128088
12.960000 34.723442 35.630925 36.374763 36.523901 37.471282 38.253876
13.000000 34.853308 35.775183 36.516334 36.664903 37.602351 38.370483
13.040000 34.990616 35.936860 36.671747 36.806614 37.722368 38.449931
13.080000 35.192779 36.053893 36.833432 36.952359 37.829749 38.564393
13.120000 35.384341 36.208823 36.983418 37.094030 37.968265 38.737773
13.160000 35.478571 36.340228 37.134304 37.233021 38.093765 38.838471
13.200000 35.612678 36.489595 37.269523 37.371242 38.204202 39.075192
13.240000 35.774394 36.618234 37.394932 37.503253 38.323505 39.372646
13.280000 36.047277 36.783263 37.541092 37.639091 38.424150 39.588970
13.320000 36.250545 36.910990 37.657948 37.770310 38.548543 39.703842
13.360000 36.373492 37.058307 37.815892 37.899297 38.638156 39.904142
13.400000 36.560073 37.195090 37.932463 38.027630 38.726902 39.982220
13.440000 36.694804 37.354430 38.051338 38.158116 38.854191 40.120917
13.480000 36.846516 37.487379 38.202913 38.289646 38.958238 40.271182
13.520000 36.993444 37.629278 38.346773 38.427733 39.068555 40.489524
13.560000 37.198342 37.795441 38.477392 38.568386 39.163968 40.626422
13.600000 37.345762 37.948188 38.635282 38.724045 39.327852 40.880634
13.640000 37.541419 38.152781 38.810689 38.895497 39.469415 40.996348
