depth(m) lower_95(kyr) lower_68(kyr) median(kyr) mean(kyr) upper_68(kyr) upper_95(kyr)
0.050000 0.002839 0.022378 0.079010 0.099910 0.176617 0.309284
0.100000 0.112166 0.170456 0.250126 0.259450 0.345181 0.488383
0.150000 0.243644 0.316913 0.411902 0.419685 0.517989 0.641503
0.170000 0.312627 0.389274 0.485683 0.493594 0.596704 0.738671
0.200000 0.395046 0.494956 0.609459 0.624900 0.744456 0.940723
0.250000 0.551887 0.663623 0.796207 0.840786 1.001479 1.367411
0.300000 0.690675 0.820395 0.985369 1.052669 1.272002 1.823703
0.350000 0.835152 0.998928 1.169625 1.270276 1.557336 2.251203
0.400000 0.998015 1.171951 1.380835 1.484326 1.789676 2.673893
0.450000 1.174033 1.348283 1.588047 1.710757 2.081056 3.058375
0.490000 1.294857 1.504555 1.804189 1.909045 2.287262 3.277338
0.540000 1.462178 1.698974 2.031516 2.153039 2.634922 3.553435
0.590000 1.615900 1.882785 2.287836 2.402774 2.937253 3.932111
0.640000 1.770746 2.067780 2.524926 2.637686 3.171287 4.207367
0.690000 1.932886 2.278340 2.760770 2.871650 3.453266 4.476684
0.740000 2.113170 2.485804 2.998974 3.109714 3.742985 4.706111
0.790000 2.317025 2.707084 3.256986 3.360541 3.998470 4.923301
0.840000 2.454512 2.964268 3.515763 3.610550 4.299881 5.179963
0.890000 2.649380 3.221686 3.812662 3.870764 4.549475 5.456112
0.940000 2.845653 3.485427 4.097954 4.141365 4.849911 5.696972
0.990000 3.020641 3.752539 4.370018 4.412683 5.108389 5.917905
1.030000 3.167166 3.966957 4.611816 4.632345 5.317280 6.113042
1.080000 3.315293 4.171600 4.876500 4.874926 5.553944 6.310274
1.130000 3.477474 4.370756 5.113798 5.102092 5.796161 6.598795
1.180000 3.685102 4.561987 5.317746 5.310116 6.016682 6.820642
1.230000 3.905280 4.764395 5.528864 5.522737 6.220512 7.034863
1.280000 4.151762 4.961765 5.768564 5.730711 6.445418 7.239805
1.330000 4.317945 5.158852 5.965199 5.940198 6.673319 7.507772
1.380000 4.507884 5.372428 6.180143 6.155646 6.880765 7.732958
1.430000 4.725641 5.581842 6.395908 6.366454 7.088384 7.945616
1.500000 5.002711 5.879642 6.701554 6.660512 7.372450 8.215328
1.550000 5.299075 6.072514 6.908633 6.878237 7.591338 8.420716
1.600000 5.573812 6.323266 7.135937 7.106333 7.803736 8.644168
1.650000 5.818424 6.551267 7.369221 7.337968 8.011357 8.865626
1.700000 6.033297 6.822990 7.602736 7.576171 8.225712 9.099202
1.750000 6.281423 7.098546 7.854035 7.822805 8.477089 9.310100
1.800000 6.571716 7.363136 8.115451 8.072405 8.743186 9.563562
1.850000 6.797808 7.649432 8.371604 8.331137 8.995896 9.831368
1.900000 7.043836 7.890743 8.620839 8.573005 9.240788 9.985652
2.010000 7.406507 8.320754 9.067040 9.017361 9.710773 10.357022
2.030000 7.478324 8.424787 9.146914 9.112541 9.810822 10.437759
2.080000 7.701500 8.655644 9.360663 9.335221 10.029843 10.613535
2.130000 8.003644 8.905283 9.588864 9.561010 10.249533 10.804217
2.180000 8.305209 9.158229 9.832473 9.799355 10.474297 10.999858
2.255000 8.798719 9.530580 10.177949 10.157956 10.802264 11.277078
2.330000 9.218319 9.921880 10.517917 10.510294 11.116259 11.561312
2.380000 9.517890 10.214189 10.789160 10.769106 11.357611 11.798442
2.430000 9.988713 10.520192 11.061593 11.043865 11.604817 12.033905
2.480000 10.289947 10.849354 11.345840 11.342994 11.860551 12.231322
2.510000 10.573960 11.090713 11.580877 11.552802 12.038776 12.402005
2.560000 11.036295 11.494887 11.918187 11.906612 12.335941 12.699842
2.610000 11.431485 11.849065 12.257411 12.243206 12.629120 12.959945
2.660000 11.858871 12.167030 12.544255 12.543874 12.913103 13.230064
2.710000 12.124612 12.477872 12.819018 12.824532 13.165668 13.489540
2.760000 12.422650 12.751565 13.113533 13.113551 13.472957 13.838842
2.810000 12.727934 13.067749 13.414397 13.414539 13.768132 14.111732
2.860000 12.979370 13.374736 13.724699 13.715608 14.063478 14.359415
2.910000 13.251024 13.668489 14.018456 14.004433 14.349415 14.649283
3.000000 13.748607 14.195446 14.527723 14.514727 14.855209 15.142602
3.050000 14.072077 14.458588 14.793252 14.783172 15.103625 15.425198
3.100000 14.479396 14.790113 15.104999 15.098950 15.402432 15.746369
3.150000 14.803407 15.145926 15.466784 15.462749 15.760580 16.123234
3.200000 15.269748 15.613083 15.961940 16.004956 16.392681 17.027123
3.250000 16.027064 16.486838 17.044280 17.053681 17.614536 18.142328
3.300000 16.497712 17.031455 17.585526 17.623439 18.235337 18.896268
3.350000 16.835045 17.399176 18.028018 18.062512 18.763556 19.477663
3.400000 17.137655 17.675423 18.410359 18.444880 19.242949 19.927178
3.450000 17.334552 17.989559 18.795018 18.820754 19.661292 20.316631
3.500000 17.585032 18.302277 19.153673 19.166660 20.055090 20.638720
3.530000 17.762936 18.477862 19.389468 19.363672 20.247309 20.819003
3.580000 18.119799 18.793335 19.726442 19.679277 20.527794 21.054704
3.630000 18.389976 19.133859 20.053000 20.000932 20.826811 21.273697
3.680000 18.737261 19.495171 20.374683 20.306121 21.091584 21.495600
3.730000 19.091147 19.859229 20.712237 20.620002 21.367057 21.695484
3.780000 19.486840 20.191223 21.010345 20.913540 21.586803 21.919069
3.830000 19.893920 20.549102 21.297823 21.212954 21.840211 22.176772
3.880000 20.301717 20.948007 21.594273 21.520572 22.073807 22.383879
3.940000 20.838334 21.394838 21.938898 21.894562 22.380486 22.652744
3.980000 21.225285 21.709424 22.209722 22.152341 22.574331 22.860017
4.010000 21.518247 21.941092 22.409262 22.357285 22.740322 22.987209
4.060000 22.029969 22.428249 22.756048 22.716566 23.011250 23.232425
4.110000 22.592872 22.856350 23.076848 23.073639 23.297426 23.511933
4.120000 22.670299 22.926771 23.139287 23.141013 23.364883 23.584320
4.160000 22.885247 23.153443 23.405380 23.448945 23.745496 24.234892
4.210000 23.128098 23.428787 23.776578 23.850679 24.292072 25.014086
4.260000 23.375647 23.699335 24.153234 24.250749 24.826415 25.604007
4.310000 23.614249 23.984965 24.562944 24.651513 25.326557 26.157264
4.360000 23.848859 24.296819 24.996372 25.061181 25.782233 26.719136
4.410000 24.117861 24.621975 25.403931 25.462403 26.252150 27.255823
4.505000 24.630462 25.376190 26.257615 26.324901 27.225242 28.695325
4.600000 25.087474 26.159886 26.988927 27.155861 28.033981 30.635032
4.650000 25.336215 26.498085 27.350385 27.511542 28.415174 31.152987
4.700000 25.565938 26.799914 27.670348 27.848864 28.853219 31.547859
4.750000 25.853443 27.080665 27.936419 28.170810 29.183469 32.246127
4.800000 26.150759 27.374476 28.213329 28.480038 29.554946 32.857468
4.850000 26.439413 27.691141 28.494568 28.778964 29.898782 33.422998
4.900000 26.719758 27.954713 28.741726 29.081318 30.276018 34.010268
4.950000 26.872295 28.198893 28.980613 29.363941 30.574327 34.362833
5.000000 27.099111 28.397728 29.233076 29.641689 30.822993 34.667414
5.040000 27.291074 28.583289 29.423588 29.861933 31.074036 34.873388
5.090000 27.484019 28.809620 29.662956 30.128733 31.333426 35.353360
5.140000 27.701810 29.007140 29.914880 30.396080 31.666691 35.885965
5.190000 27.944651 29.216578 30.169939 30.659235 32.001574 36.290473
5.240000 28.180398 29.403732 30.449435 30.923794 32.314175 36.573213
5.290000 28.396287 29.596714 30.689152 31.182352 32.579585 37.558798
5.340000 28.606832 29.783192 30.946228 31.441679 32.922547 38.292582
5.390000 28.833498 29.966613 31.251869 31.702723 33.263210 38.711406
5.440000 28.971849 30.213395 31.474023 31.974158 33.631092 39.144035
5.490000 29.164638 30.412958 31.725946 32.237736 33.964633 39.536175
5.530000 29.353794 30.580104 31.935652 32.453699 34.265627 39.690452
5.580000 29.569049 30.781818 32.156721 32.733799 34.695184 39.925893
5.630000 29.802680 30.968488 32.388350 33.018238 35.155713 40.149064
5.680000 30.140474 31.169259 32.656040 33.306704 35.624695 40.331373
5.730000 30.365837 31.344482 32.857741 33.638918 36.228361 40.664350
5.780000 30.636421 31.538738 33.098548 33.976258 37.164397 40.976102
5.830000 30.828691 31.740445 33.291423 34.316330 38.225810 41.262982
5.880000 31.121067 31.945177 33.515094 34.645022 38.826012 41.547816
5.930000 31.312047 32.173637 33.708148 34.965022 39.232310 41.809601
6.000000 31.554066 32.469664 33.966363 35.429604 39.757758 42.188856
6.050000 31.771673 32.692917 34.196575 35.734488 40.145047 42.472259
6.100000 31.975664 32.899834 34.430524 36.028859 40.434326 42.783535
6.150000 32.220554 33.148937 34.643467 36.328158 40.706285 43.243979
6.200000 32.399435 33.371754 34.891344 36.606888 41.024066 43.517342
6.250000 32.653702 33.633276 35.165233 36.902991 41.408476 44.121116
6.300000 32.931148 33.874095 35.485353 37.206998 41.778574 44.558143
6.350000 33.185418 34.181856 35.810624 37.523151 42.062109 45.030558
